时间,位移,载荷,拉伸应力,拉伸应变 (位移)
(s),(mm),(N),(MPa),(mm/mm)
0,0,4.63293,0.05852,0
0.1,0.00011,5.60206,0.07076,0
0.2,0.00085,26.71114,0.33739,0.00001
0.3,0.00048,19.07564,0.24095,0
0.4,0.00163,50.12607,0.63315,0.00002
0.5,0.00533,183.93277,2.32328,0.00005
0.6,0.00828,287.81848,3.63548,0.00008
0.7,0.00914,314.52557,3.97282,0.00009
0.8,0.01076,368.11838,4.64976,0.00011
0.9,0.01264,426.45731,5.38664,0.00013
1,0.01453,480.41638,6.06821,0.00015
1.1,0.01614,508.35147,6.42106,0.00016
1.2,0.01768,491.72623,6.21107,0.00018
1.3,0.01923,507.4827,6.41009,0.00019
1.4,0.02104,541.83856,6.84404,0.00021
1.5,0.02292,571.78491,7.2223,0.00023
1.6,0.02448,589.41608,7.445,0.00024
1.7,0.02597,609.14789,7.69424,0.00026
1.8,0.02754,630.84332,7.96827,0.00028
1.9,0.02939,657.73938,8.308,0.00029
2,0.03125,679.91663,8.58813,0.00031
2.1,0.03277,694.21533,8.76873,0.00033
2.2,0.03433,714.58636,9.02604,0.00034
2.3,0.03596,735.91351,9.29543,0.00036
2.4,0.03776,760.47186,9.60563,0.00038
2.5,0.03953,780.31403,9.85626,0.00039
2.6,0.0411,796.86285,10.06529,0.00041
2.7,0.04266,815.60931,10.30208,0.00043
2.8,0.04421,835.25098,10.55018,0.00044
2.9,0.046,860.67981,10.87137,0.00046
3,0.04771,879.3302,11.10695,0.00048
3.1,0.04933,897.11713,11.33162,0.00049
3.2,0.05097,916.59326,11.57762,0.00051
3.3,0.05258,934.86102,11.80836,0.00053
3.4,0.05436,935.96149,11.82226,0.00054
3.5,0.05606,831.94635,10.50844,0.00056
3.6,0.05767,867.13696,10.95293,0.00058
3.7,0.05934,909.10913,11.48309,0.00059
3.8,0.06096,945.27545,11.93991,0.00061
3.9,0.06271,977.47156,12.34658,0.00063
4,0.06444,995.61548,12.57576,0.00064
4.1,0.06603,1006.48657,12.71308,0.00066
4.2,0.06773,1024.02979,12.93467,0.00068
4.3,0.06937,1039.53699,13.13054,0.00069
4.4,0.07102,1057.00464,13.35118,0.00071
4.5,0.07268,1073.34131,13.55753,0.00073
4.6,0.07434,1088.83777,13.75327,0.00074
4.7,0.0761,1106.59961,13.97762,0.00076
4.8,0.07777,1120.69397,14.15565,0.00078
4.9,0.07929,1133.26135,14.31439,0.00079
5,0.08095,1150.61816,14.53362,0.00081
5.1,0.08262,1166.90198,14.73931,0.00083
5.2,0.0844,1185.69495,14.97668,0.00084
5.3,0.08621,1201.83728,15.18058,0.00086
5.4,0.08763,1209.29028,15.27472,0.00088
5.5,0.08931,1228.56934,15.51824,0.00089
5.6,0.09094,1244.36926,15.71781,0.00091
5.7,0.09271,1263.27905,15.95666,0.00093
5.8,0.09443,1278.2981,16.14637,0.00094
5.9,0.09585,1286.93604,16.25548,0.00096
6,0.09749,1305.46973,16.48958,0.00097
6.1,0.09928,1324.82971,16.73412,0.00099
6.2,0.10108,1341.94592,16.95031,0.00101
6.3,0.10282,1355.26123,17.1185,0.00103
6.4,0.1042,1361.33289,17.19519,0.00104
6.5,0.10583,1379.70593,17.42727,0.00106
6.6,0.10761,1399.01172,17.67112,0.00108
6.7,0.10959,1419.49536,17.92985,0.00109
6.8,0.11125,1426.95093,18.02402,0.00111
6.9,0.11259,1433.6637,18.10881,0.00112
7,0.11419,1451.7821,18.33767,0.00114
7.1,0.11601,1473.68213,18.61429,0.00116
7.2,0.11791,1491.25684,18.83628,0.00118
7.3,0.11958,1501.36841,18.964,0.00119
7.4,0.12091,1506.9447,19.03444,0.00121
7.5,0.12255,1526.74841,19.28458,0.00122
7.6,0.12439,1546.97693,19.54009,0.00124
7.7,0.12628,1565.06396,19.76855,0.00126
7.8,0.12794,1573.95044,19.8808,0.00128
7.9,0.12924,1578.32117,19.936,0.00129
8,0.13081,1596.47388,20.16529,0.00131
8.1,0.13272,1620.20081,20.46499,0.00133
8.2,0.1347,1638.48047,20.69588,0.00135
8.3,0.13622,1642.50635,20.74673,0.00136
8.4,0.13756,1650.67078,20.84986,0.00137
8.5,0.13914,1668.56458,21.07588,0.00139
8.6,0.141,1691.66479,21.36766,0.00141
8.7,0.14288,1708.06531,21.57482,0.00143
8.8,0.14447,1715.63501,21.67043,0.00144
8.9,0.14591,1724.0791,21.77709,0.00146
9,0.14744,1738.67712,21.96148,0.00147
9.1,0.14931,1761.87134,22.25445,0.00149
9.2,0.15118,1777.86438,22.45646,0.00151
9.3,0.15276,1785.64282,22.55471,0.00153
9.4,0.15426,1796.00439,22.68559,0.00154
9.5,0.15581,1810.39941,22.86742,0.00156
9.6,0.15768,1833.07324,23.15381,0.00158
9.7,0.15961,1850.30847,23.37151,0.00159
9.8,0.16112,1855.57043,23.43798,0.00161
9.9,0.16261,1867.37,23.58702,0.00162
10,0.16417,1882.78052,23.78167,0.00164
10.1,0.16608,1906.74292,24.08435,0.00166
10.2,0.16791,1921.07068,24.26532,0.00168
10.3,0.16943,1928.71631,24.36189,0.00169
10.4,0.17095,1940.9303,24.51617,0.00171
10.5,0.17253,1956.37854,24.7113,0.00172
10.6,0.17436,1978.33496,24.98864,0.00174
10.7,0.17621,1994.52063,25.19308,0.00176
10.8,0.1777,2001.64026,25.28301,0.00178
10.9,0.17932,2017.13818,25.47876,0.00179
11,0.1809,2030.82751,25.65168,0.00181
11.1,0.18267,2050.35376,25.89832,0.00182
11.2,0.18447,2067.43359,26.11405,0.00184
11.3,0.18597,2075.52686,26.21628,0.00186
11.4,0.18758,2091.13574,26.41344,0.00187
11.5,0.18925,2107.53589,26.62059,0.00189
11.6,0.19098,2124.99707,26.84115,0.00191
11.7,0.19276,2141.68652,27.05195,0.00193
11.8,0.19429,2150.82568,27.16739,0.00194
11.9,0.19597,2168.11035,27.38572,0.00196
12,0.19762,2182.83325,27.57168,0.00197
12.1,0.19929,2199.20361,27.77846,0.00199
12.2,0.20105,2216.13306,27.9923,0.00201
12.3,0.2026,2227.17773,28.1318,0.00202
12.4,0.20428,2243.83374,28.34219,0.00204
12.5,0.20606,2262.50488,28.57803,0.00206
12.6,0.20775,2276.92285,28.76014,0.00208
12.7,0.20942,2291.38501,28.94282,0.00209
12.8,0.21098,2304.11572,29.10362,0.00211
12.9,0.21275,2324.21265,29.35747,0.00213
13,0.21448,2340.052,29.55754,0.00214
13.1,0.21607,2352.4165,29.71371,0.00216
13.2,0.21774,2369.06079,29.92395,0.00218
13.3,0.2193,2381.6748,30.08328,0.00219
13.4,0.22108,2402.21631,30.34274,0.00221
13.5,0.22288,2419.9353,30.56655,0.00223
13.6,0.2244,2429.43896,30.6866,0.00224
13.7,0.22601,2445.15332,30.88509,0.00226
13.8,0.22768,2461.72876,31.09445,0.00227
13.9,0.22946,2481.31079,31.34179,0.00229
14,0.23119,2496.13184,31.529,0.00231
14.1,0.23262,2504.40137,31.63346,0.00232
14.2,0.23426,2522.31519,31.85973,0.00234
14.3,0.23599,2541.34082,32.10004,0.00236
14.4,0.23774,2558.75073,32.31995,0.00238
14.5,0.23955,2576.31934,32.54186,0.00239
14.6,0.24099,2583.01489,32.62643,0.00241
14.7,0.24254,2598.104,32.81703,0.00242
14.8,0.24424,2617.38672,33.06059,0.00244
14.9,0.24607,2638.44482,33.32658,0.00246
15,0.24785,2653.8811,33.52156,0.00248
15.1,0.24922,2659.43408,33.5917,0.00249
15.2,0.25083,2677.36304,33.81816,0.00251
15.3,0.25259,2697.27954,34.06973,0.00252
15.4,0.25448,2718.92944,34.34319,0.00254
15.5,0.25625,2733.13599,34.52264,0.00256
15.6,0.25763,2738.69556,34.59286,0.00257
15.7,0.25919,2755.10742,34.80016,0.00259
15.8,0.26099,2777.96387,35.08886,0.00261
15.9,0.26282,2797.16919,35.33145,0.00263
16,0.26463,2813.56323,35.53852,0.00264
16.1,0.26592,2815.77954,35.56652,0.00266
16.2,0.26747,2833.1228,35.78558,0.00267
16.3,0.26928,2856.93994,36.08642,0.00269
16.4,0.27121,2879.35205,36.36951,0.00271
16.5,0.27297,2892.70776,36.53821,0.00273
16.6,0.27423,2894.15283,36.55647,0.00274
16.7,0.27577,2911.93042,36.78101,0.00275
16.8,0.27765,2938.16064,37.11233,0.00277
16.9,0.27949,2957.17407,37.35249,0.00279
17,0.28125,2972.17603,37.54198,0.00281
17.1,0.28256,2975.59741,37.5852,0.00282
17.2,0.28407,2991.90723,37.79121,0.00284
17.3,0.2859,3017.39917,38.1132,0.00286
17.4,0.28782,3039.66431,38.39444,0.00288
17.5,0.28958,3053.54321,38.56975,0.00289
17.6,0.29089,3056.13281,38.60246,0.00291
17.7,0.2924,3072.75415,38.8124,0.00292
17.8,0.29421,3097.45557,39.12441,0.00294
17.9,0.29614,3120.97119,39.42144,0.00296
18,0.29786,3133.55664,39.58041,0.00298
18.1,0.29925,3139.10889,39.65054,0.00299
18.2,0.30074,3153.50659,39.8324,0.003
18.3,0.3026,3179.87061,40.16541,0.00302
18.4,0.30452,3202.19556,40.4474,0.00304
18.5,0.30618,3213.30957,40.58778,0.00306
18.6,0.30771,3223.6748,40.7187,0.00307
18.7,0.30918,3236.3269,40.87851,0.00309
18.8,0.31103,3261.47559,41.19617,0.00311
18.9,0.31292,3283.02563,41.46837,0.00313
19,0.31458,3294.79272,41.617,0.00314
19.1,0.31603,3303.37207,41.72537,0.00316
19.2,0.31751,3317.16797,41.89963,0.00317
19.3,0.31938,3343.91675,42.2375,0.00319
19.4,0.32122,3363.24341,42.48161,0.00321
19.5,0.32287,3375.84692,42.64081,0.00323
19.6,0.3244,3386.80029,42.77916,0.00324
19.7,0.32591,3399.77222,42.94302,0.00326
19.8,0.32769,3423.16895,43.23854,0.00327
19.9,0.3295,3442.74927,43.48586,0.00329
20,0.33115,3455.68066,43.6492,0.00331
20.1,0.33274,3468.74512,43.81422,0.00332
20.2,0.3342,3479.91895,43.95536,0.00334
20.3,0.33596,3502.73291,44.24353,0.00336
20.4,0.33774,3522.13306,44.48857,0.00337
20.5,0.33935,3535.11206,44.65251,0.00339
20.6,0.34105,3552.38647,44.87071,0.00341
20.7,0.34253,3562.30664,44.99601,0.00342
20.8,0.34428,3584.47095,45.27597,0.00344
20.9,0.34602,3602.38257,45.50222,0.00346
21,0.34768,3617.01709,45.68707,0.00347
21.1,0.34941,3634.92139,45.91322,0.00349
21.2,0.35094,3645.61377,46.04827,0.00351
21.3,0.35264,3665.35596,46.29764,0.00352
21.4,0.35437,3683.82031,46.53087,0.00354
21.5,0.35601,3699.29102,46.72628,0.00356
21.6,0.3578,3719.03003,46.97561,0.00357
21.7,0.35945,3732.98853,47.15192,0.00359
21.8,0.361,3746.53052,47.32297,0.00361
21.9,0.36264,3763.68018,47.53959,0.00362
22,0.36433,3782.32715,47.77512,0.00364
22.1,0.36613,3803.08447,48.03731,0.00366
22.2,0.36776,3816.24146,48.2035,0.00367
22.3,0.36927,3828.01294,48.35218,0.00369
22.4,0.37097,3847.78638,48.60195,0.00371
22.5,0.37264,3864.77124,48.81649,0.00372
22.6,0.37447,3886.09399,49.08582,0.00374
22.7,0.37618,3901.19922,49.27661,0.00376
22.8,0.3776,3909.65259,49.38339,0.00377
22.9,0.37919,3926.55957,49.59694,0.00379
23,0.38089,3946.86157,49.85338,0.00381
23.1,0.38276,3970.77051,50.15538,0.00382
23.2,0.38455,3986.73755,50.35706,0.00384
23.3,0.38585,3989.7998,50.39574,0.00385
23.4,0.38748,4009.50879,50.64469,0.00387
23.5,0.38921,4029.98096,50.90327,0.00389
23.6,0.39105,4052.41919,51.1867,0.00391
23.7,0.39286,4070.54492,51.41564,0.00392
23.8,0.39425,4075.36694,51.47655,0.00394
23.9,0.39581,4090.87476,51.67243,0.00395
24,0.39763,4114.15381,51.96647,0.00397
24.1,0.39952,4136.82178,52.2528,0.00399
24.2,0.40131,4154.21875,52.47254,0.00401
24.3,0.4026,4156.00439,52.49509,0.00402
24.4,0.40418,4174.0874,52.7235,0.00404
24.5,0.40601,4198.3584,53.03007,0.00406
24.6,0.40791,4221.74072,53.32542,0.00408
24.7,0.40972,4237.91211,53.52968,0.00409
24.8,0.41095,4236.9707,53.51779,0.00411
24.9,0.4125,4255.14307,53.74733,0.00412
25,0.41433,4280.90137,54.07269,0.00414
25.1,0.41626,4304.94336,54.37636,0.00416
25.2,0.41802,4319.37109,54.5586,0.00418
25.3,0.41931,4320.53076,54.57325,0.00419
25.4,0.42081,4335.69141,54.76475,0.0042
25.5,0.42275,4364.91162,55.13383,0.00422
25.6,0.42458,4385.59082,55.39503,0.00424
25.7,0.42626,4399.3501,55.56883,0.00426
25.8,0.42762,4404.44873,55.63323,0.00427
25.9,0.42906,4418.10645,55.80574,0.00429
26,0.43093,4445.521,56.15202,0.00431
26.1,0.43288,4470.60742,56.46889,0.00432
26.2,0.43457,4483.34473,56.62978,0.00434
26.3,0.43594,4488.12158,56.69011,0.00436
26.4,0.43736,4500.81201,56.85041,0.00437
26.5,0.4392,4527.70996,57.19016,0.00439
26.6,0.44118,4553.94434,57.52153,0.00441
26.7,0.44285,4566.05615,57.67451,0.00442
26.8,0.44434,4574.36328,57.77945,0.00444
26.9,0.44576,4584.86133,57.91205,0.00445
27,0.44769,4614.67432,58.28862,0.00447
27.1,0.44947,4633.7207,58.5292,0.00449
27.2,0.45122,4650.42871,58.74024,0.00451
27.3,0.45266,4657.74219,58.83261,0.00452
27.4,0.45406,4668.26465,58.96553,0.00454
27.5,0.45603,4699.37305,59.35846,0.00456
27.6,0.45795,4722.3457,59.64863,0.00457
27.7,0.45947,4729.42627,59.73807,0.00459
27.8,0.46102,4742.46289,59.90274,0.00461
27.9,0.46246,4754.15527,60.05042,0.00462
28,0.46429,4780.07373,60.3778,0.00464
28.1,0.46627,4805.52734,60.69931,0.00466
28.2,0.46788,4815.84521,60.82964,0.00467
28.3,0.46941,4826.43799,60.96344,0.00469
28.4,0.47085,4837.06348,61.09765,0.0047
28.5,0.47265,4862.92969,61.42437,0.00472
28.6,0.47449,4884.74707,61.69995,0.00474
28.7,0.47603,4895.36035,61.83401,0.00476
28.8,0.47767,4911.78467,62.04146,0.00477
28.9,0.47915,4923.41455,62.18836,0.00479
29,0.48094,4947.35791,62.4908,0.0048
29.1,0.48275,4967.37646,62.74365,0.00482
29.2,0.48434,4980.01367,62.90327,0.00484
29.3,0.48597,4996.05615,63.10591,0.00485
29.4,0.48753,5009.33936,63.27369,0.00487
29.5,0.48926,5030.10449,63.53598,0.00489
29.6,0.49108,5051.20459,63.8025,0.00491
29.7,0.49269,5064.6582,63.97243,0.00492
29.8,0.49442,5082.61768,64.19928,0.00494
29.9,0.49607,5097.26562,64.3843,0.00496
30,0.49761,5110.89795,64.5565,0.00497
30.1,0.49942,5134.1543,64.85024,0.00499
30.2,0.50102,5148.00684,65.02522,0.00501
30.3,0.50282,5169.44873,65.29606,0.00502
30.4,0.50444,5182.7666,65.46427,0.00504
30.5,0.50605,5197.7793,65.6539,0.00506
30.6,0.50772,5215.1499,65.87331,0.00507
30.7,0.5093,5229.42432,66.05362,0.00509
30.8,0.51112,5252.76611,66.34845,0.00511
30.9,0.51286,5269.78516,66.56342,0.00512
31,0.51438,5280.77832,66.70228,0.00514
31.1,0.51603,5297.77393,66.91695,0.00516
31.2,0.51767,5314.5376,67.12869,0.00517
31.3,0.51959,5340.25928,67.45359,0.00519
31.4,0.52129,5354.76562,67.63682,0.00521
31.5,0.5226,5359.04883,67.69092,0.00522
31.6,0.52425,5379.55518,67.94994,0.00524
31.7,0.5259,5398.04248,68.18346,0.00525
31.8,0.52772,5421.6416,68.48154,0.00527
31.9,0.52962,5444.07812,68.76494,0.00529
32,0.53097,5446.94629,68.80117,0.0053
32.1,0.53251,5462.36133,68.99588,0.00532
32.2,0.53417,5481.89307,69.24258,0.00534
32.3,0.53605,5507.54443,69.56659,0.00536
32.4,0.53799,5531.1665,69.86497,0.00537
32.5,0.53927,5530.09473,69.85143,0.00539
32.6,0.54083,5546.72852,70.06153,0.0054
32.7,0.54252,5567.23096,70.3205,0.00542
32.8,0.54441,5593.9624,70.65815,0.00544
32.9,0.54637,5617.54053,70.95597,0.00546
33,0.54768,5617.77979,70.95899,0.00547
33.1,0.54917,5631.42725,71.13137,0.00549
33.2,0.5509,5653.9126,71.41539,0.0055
33.3,0.55276,5678.42041,71.72495,0.00552
33.4,0.55468,5702.07422,72.02373,0.00554
33.5,0.55605,5704.55469,72.05505,0.00555
33.6,0.55745,5715.41455,72.19223,0.00557
33.7,0.55918,5738.75439,72.48704,0.00559
33.8,0.56112,5766.37744,72.83595,0.00561
33.9,0.56311,5790.22559,73.13718,0.00563
34,0.56438,5788.10742,73.11042,0.00564
34.1,0.56576,5798.48047,73.24145,0.00565
34.2,0.56756,5825.40039,73.58147,0.00567
34.3,0.56942,5850.62744,73.90012,0.00569
34.4,0.57133,5873.20068,74.18525,0.00571
34.5,0.57265,5874.46338,74.20119,0.00572
34.6,0.57404,5885.03955,74.33479,0.00573
34.7,0.57586,5912.32227,74.6794,0.00575
34.8,0.57772,5936.90576,74.98991,0.00577
34.9,0.57959,5958.12842,75.25798,0.00579
35,0.58102,5963.01855,75.31975,0.0058
35.1,0.5824,5971.87744,75.43165,0.00582
35.2,0.58415,5996.08594,75.73743,0.00584
35.3,0.58611,6024.20557,76.09261,0.00586
35.4,0.58799,6044.60156,76.35023,0.00587
35.5,0.58932,6046.35498,76.37238,0.00589
35.6,0.59074,6057.92432,76.51852,0.0059
35.7,0.59257,6085.17236,76.86269,0.00592
35.8,0.59446,6110.34814,77.18069,0.00594
35.9,0.59627,6129.33984,77.42058,0.00596
36,0.59776,6137.61865,77.52515,0.00597
36.1,0.59917,6146.94189,77.64291,0.00599
36.2,0.60092,6170.61426,77.94193,0.006
36.3,0.60284,6197.36523,78.27982,0.00602
36.4,0.60465,6215.95898,78.51468,0.00604
36.5,0.60615,6224.54883,78.62318,0.00606
36.6,0.60753,6232.45312,78.72301,0.00607
36.7,0.60924,6254.95898,79.00729,0.00609
36.8,0.61127,6285.64795,79.39493,0.00611
36.9,0.61291,6297.95215,79.55035,0.00612
37,0.61446,6309.94971,79.70189,0.00614
37.1,0.61588,6320.05615,79.82954,0.00615
37.2,0.6176,6344.06885,80.13285,0.00617
37.3,0.61952,6370.83594,80.47095,0.00619
37.4,0.62112,6383.71094,80.63358,0.00621
37.5,0.62272,6397.80518,80.8116,0.00622
37.6,0.62427,6412.08057,80.99192,0.00624
37.7,0.62588,6429.76855,81.21534,0.00625
37.8,0.62771,6454.61768,81.52921,0.00627
37.9,0.62937,6470.49023,81.7297,0.00629
38,0.63101,6486.74512,81.93502,0.0063
38.1,0.63267,6503.58203,82.14769,0.00632
38.2,0.63426,6518.53516,82.33656,0.00634
38.3,0.63609,6542.2417,82.636,0.00635
38.4,0.63768,6555.87695,82.80823,0.00637
38.5,0.63934,6574.31348,83.04111,0.00639
38.6,0.64104,6593.3877,83.28204,0.0064
38.7,0.64258,6606.9209,83.45297,0.00642
38.8,0.6444,6631.24463,83.76021,0.00644
38.9,0.646,6645.14746,83.93582,0.00645
39,0.64771,6664.81396,84.18423,0.00647
39.1,0.64951,6686.54688,84.45874,0.00649
39.2,0.65098,6696.02734,84.57849,0.0065
39.3,0.65266,6715.74121,84.8275,0.00652
39.4,0.65429,6732.84082,85.04349,0.00654
39.5,0.65605,6754.21289,85.31344,0.00655
39.6,0.65788,6775.95264,85.58804,0.00657
39.7,0.65934,6784.07275,85.69061,0.00659
39.8,0.66103,6803.41211,85.93488,0.0066
39.9,0.66266,6820.30371,86.14825,0.00662
40,0.66434,6840.19092,86.39944,0.00664
40.1,0.66619,6864.15674,86.70216,0.00666
40.2,0.66768,6873.69775,86.82267,0.00667
40.3,0.66924,6888.99756,87.01592,0.00669
40.4,0.67089,6907.82568,87.25375,0.0067
40.5,0.6727,6931.90771,87.55793,0.00672
40.6,0.6745,6953.18408,87.82668,0.00674
40.7,0.67595,6961.17822,87.92765,0.00675
40.8,0.67745,6975.1582,88.10423,0.00677
40.9,0.67919,6997.71875,88.3892,0.00679
41,0.68098,7020.43311,88.67611,0.0068
41.1,0.6829,7044.75781,88.98335,0.00682
41.2,0.68433,7050.35498,89.05405,0.00684
41.3,0.68581,7062.80713,89.21134,0.00685
41.4,0.68755,7085.74121,89.50102,0.00687
41.5,0.6894,7111.06885,89.82094,0.00689
41.6,0.69131,7135.44336,90.12881,0.00691
41.7,0.69274,7140.54785,90.19329,0.00692
41.8,0.69415,7151.1582,90.32732,0.00693
41.9,0.69593,7176.04248,90.64163,0.00695
42,0.69778,7201.11572,90.95834,0.00697
42.1,0.69968,7224.85352,91.25817,0.00699
42.2,0.70109,7229.85498,91.32134,0.007
42.3,0.70246,7238.73438,91.4335,0.00702
42.4,0.70426,7265.3501,91.76969,0.00704
42.5,0.70617,7292.25732,92.10956,0.00705
42.6,0.70804,7314.09619,92.38541,0.00707
42.7,0.70943,7317.7627,92.43172,0.00709
42.8,0.71077,7326.51807,92.54231,0.0071
42.9,0.71254,7352.4043,92.86929,0.00712
43,0.71451,7382.75049,93.25259,0.00714
43.1,0.7163,7401.94629,93.49506,0.00716
43.2,0.71777,7409.50342,93.59051,0.00717
43.3,0.71913,7417.88086,93.69633,0.00718
43.4,0.72088,7443.10596,94.01495,0.0072
43.5,0.72278,7470.29199,94.35834,0.00722
43.6,0.72456,7489.98438,94.60708,0.00724
43.7,0.72606,7499.45703,94.72673,0.00725
43.8,0.72745,7508.44531,94.84026,0.00727
43.9,0.7292,7533.19434,95.15287,0.00728
44,0.73119,7563.17578,95.53157,0.0073
44.1,0.7328,7576.29053,95.69722,0.00732
44.2,0.73431,7587.65137,95.84072,0.00734
44.3,0.73579,7600.72559,96.00587,0.00735
44.4,0.73754,7625.30176,96.31629,0.00737
44.5,0.73951,7654.01855,96.67902,0.00739
44.6,0.74121,7670.09033,96.88202,0.0074
44.7,0.74271,7680.37158,97.01189,0.00742
44.8,0.74421,7693.32129,97.17545,0.00743
44.9,0.74591,7715.37793,97.45406,0.00745
45,0.74786,7744.40332,97.82068,0.00747
45.1,0.74952,7759.65674,98.01335,0.00749
45.2,0.75103,7770.8667,98.15495,0.0075
45.3,0.75256,7784.97314,98.33312,0.00752
45.4,0.75425,7806.37988,98.60352,0.00753
45.5,0.75614,7833.05713,98.94048,0.00755
45.6,0.75776,7847.62744,99.12452,0.00757
45.7,0.75935,7862.47314,99.31203,0.00759
45.8,0.76097,7879.67725,99.52934,0.0076
45.9,0.76257,7896.77295,99.74529,0.00762
46,0.76449,7925.08447,100.10289,0.00764
46.1,0.76607,7937.51611,100.25992,0.00765
46.2,0.76769,7953.854,100.46628,0.00767
46.3,0.76928,7969.77295,100.66736,0.00769
46.4,0.77087,7986.61621,100.8801,0.0077
46.5,0.77273,8013.25732,101.21661,0.00772
46.6,0.77433,8027.35547,101.39469,0.00774
46.7,0.77598,8044.8457,101.61561,0.00775
46.8,0.7777,8064.6582,101.86587,0.00777
46.9,0.77923,8078.37451,102.03912,0.00778
47,0.78097,8100.10938,102.31365,0.0078
47.1,0.78265,8118.88867,102.55086,0.00782
47.2,0.78427,8135.77246,102.76412,0.00783
47.3,0.7861,8159.66504,103.06591,0.00785
47.4,0.7877,8174.15332,103.24892,0.00787
47.5,0.78941,8193.81055,103.49721,0.00789
47.6,0.79097,8207.89844,103.67516,0.0079
47.7,0.79276,8231.24512,103.97005,0.00792
47.8,0.79454,8252.25684,104.23545,0.00794
47.9,0.79603,8262.72266,104.36765,0.00795
48,0.79771,8282.67285,104.61964,0.00797
48.1,0.79938,8301.3916,104.85608,0.00799
48.2,0.80105,8319.8418,105.08913,0.008
48.3,0.80287,8343.97461,105.39395,0.00802
48.4,0.80432,8352.7793,105.50517,0.00804
48.5,0.80595,8371.77832,105.74515,0.00805
48.6,0.80761,8390.81934,105.98566,0.00807
48.7,0.80943,8415.24609,106.29419,0.00809
48.8,0.81135,8440.64648,106.61503,0.00811
48.9,0.81277,8446.58594,106.69005,0.00812
49,0.81426,8459.70312,106.85574,0.00813
49.1,0.81592,8480.16113,107.11414,0.00815
49.2,0.81767,8502.73242,107.39925,0.00817
49.3,0.81959,8529.94824,107.74301,0.00819
49.4,0.82106,8537.83691,107.84265,0.0082
49.5,0.82253,8549.95508,107.99572,0.00822
49.6,0.82419,8570.53516,108.25567,0.00823
